{
  "AcquisitionMatrixPE": 82,
  "AcquisitionNumber": 1,
  "AcquisitionTime": "09:47:9.467500",
  "BodyPartExamined": "BRAIN",
  "CoilString": "HE3_4;NE1_2",
  "ConversionSoftware": "dcm2niix",
  "ConversionSoftwareVersion": "v1.0.20190410  GCC6.3.0",
  "DeviceSerialNumber": "145028",
  "DwellTime": 2e-05,
  "EchoNumber": 2,
  "EchoTime": 0.00738,
  "EchoTime1": 0.00492,
  "EchoTime2": 0.00738,
  "FlipAngle": 60,
  "ImageOrientationPatientDICOM": [1, 0, 0, 0, 0.897258, 0.441506],
  "ImageType": [
    "ORIGINAL",
    "PRIMARY",
    "P",
    "ND"
],
  "ImagingFrequency": 123.26,
  "InPlanePhaseEncodingDirectionDICOM": "COL",
  "InstitutionAddress": "Tremona_Road_StreetNo_Southampton_District_GB_SO16_6YD",
  "InstitutionName": "UHS_SMR1",
  "InstitutionalDepartmentName": "Department",
  "MRAcquisitionType": "2D",
  "MagneticFieldStrength": 3,
  "Manufacturer": "Siemens",
  "ManufacturersModelName": "Skyra",
  "Modality": "MR",
  "PatientPosition": "HFS",
  "PercentPhaseFOV": 100,
  "PhaseEncodingDirection": "j-",
  "PhaseEncodingSteps": 82,
  "PixelBandwidth": 305,
  "ProcedureStepDescription": "MRI_Head",
  "ProtocolName": "gre_field_mapping_3mm",
  "ReconMatrixPE": 82,
  "RepetitionTime": 0.52,
  "SAR": 0.49502,
  "ScanningSequence": "GR",
  "SequenceName": "_fm2d2r",
  "SequenceVariant": "SP",
  "SeriesDescription": "gre_field_mapping_3mm",
  "SeriesNumber": 10,
  "SliceThickness": 3,
  "SliceTiming": [0.0007825, -0.001, -0.001, -0.001, -0.001, -0.001, -0.001, -0.001, -0.001, -0.001, -0.001, -0.001, -0.001, -0.001, -0.001, -0.001, -0.001, -0.001, -0.001, -0.001, -0.001, -0.001, -0.001, -0.001, -0.001, -0.001, -0.001, -0.001, -0.001, -0.001, -0.001, -0.001, -0.001, -0.001, -0.001, -0.001, -0.001, -0.001, -0.001, -0.001, -0.001, -0.001],
  "SoftwareVersions": "syngo_MR_E11",
  "SpacingBetweenSlices": 3.54,
  "StationName": "AWP145028",
  "dcmmeta_affine": [
    [-3.0, 0.0, 0.0, 124.20481872558594],
    [0.0, 2.69177508354187, 1.5629310607910156, -150.29367065429688],
    [0.0, -1.3245176076889038, 3.1762924194335938, -6.787806034088135],
    [0.0, 0.0, 0.0, 1.0]
],
  "dcmmeta_reorient_transform": [
    [0.0, -1.0, 0.0, 81.0],
    [1.0, 0.0, 0.0, 0.0],
    [0.0, 0.0, -1.0, 41.0],
    [0.0, 0.0, 0.0, 1.0]
],
  "dcmmeta_shape": [82, 82, 42],
  "dcmmeta_slice_dim": 2,
  "dcmmeta_version": 0.6,
  "global": {
    "const": {
      "AcquisitionMatrix": [82, 0, 0, 82],
      "AcquisitionNumber": 1,
      "AngioFlag": "N",
      "BitsAllocated": 16,
      "BitsStored": 12,
      "BodyPartExamined": "BRAIN",
      "Columns": 82,
      "EchoNumbers": 2,
      "EchoTime": 7.38,
      "EchoTrainLength": 0,
      "FlipAngle": 60.0,
      "HighBit": 11,
      "ImageOrientationPatient": [1.0, 0.0, 0.0, 0.0, 0.8972583668213, 0.44150585858987],
      "ImageType": [
        "ORIGINAL",
        "PRIMARY",
        "P",
        "ND"
],
      "ImagedNucleus": "1H",
      "ImagingFrequency": 123.260105,
      "InPlanePhaseEncodingDirection": "COL",
      "MRAcquisitionType": "2D",
      "MagneticFieldStrength": 3.0,
      "Manufacturer": "SIEMENS",
      "ManufacturerModelName": "Skyra",
      "Modality": "MR",
      "NumberOfAverages": 1.0,
      "NumberOfPhaseEncodingSteps": 82,
      "PercentPhaseFieldOfView": 100.0,
      "PercentSampling": 100.0,
      "PerformedProcedureStepStartTime": "092154.931000",
      "PhotometricInterpretation": "MONOCHROME2",
      "PixelBandwidth": 305.0,
      "PixelRepresentation": 0,
      "PixelSpacing": [3.0, 3.0],
      "ProcedureCodeSequence": [
        {
          "CodeMeaning": "MRI Head",
          "CodeValue": "MSKUH",
          "CodingSchemeDesignator": "NICIP"
        }
],
      "ProtocolName": "gre_field_mapping_3mm",
      "RepetitionTime": 520.0,
      "RequestAttributesSequence": [
        {
          "RequestedProcedureID": "MSKUH",
          "ScheduledProcedureStepDescription": "MRI Head",
          "ScheduledProcedureStepID": "70456890",
          "ScheduledProtocolCodeSequence": [
            {
              "CodeMeaning": "MRI Head",
              "CodeValue": "MSKUH",
              "CodingSchemeDesignator": "NICIP"
            }
]
        }
],
      "RequestedProcedureCodeSequence": [
        {
          "CodeMeaning": "MRI Head",
          "CodeValue": "MSKUH",
          "CodingSchemeDesignator": "NICIP"
        }
],
      "RescaleIntercept": -4096.0,
      "RescaleSlope": 2.0,
      "RescaleType": "US",
      "Rows": 82,
      "SAR": 0.49501995952946,
      "SamplesPerPixel": 1,
      "ScanningSequence": "GR",
      "SequenceName": "*fm2d2r",
      "SequenceVariant": "SP",
      "SeriesDescription": "gre_field_mapping_3mm",
      "SeriesNumber": 10,
      "SeriesTime": "094839.635000",
      "SliceThickness": 3.0,
      "SoftwareVersions": "syngo MR E11",
      "SpacingBetweenSlices": 3.54,
      "SpecificCharacterSet": "ISO_IR 100",
      "StudyID": "MSKUH",
      "StudyTime": "092154.734000",
      "TransmitCoilName": "Body",
      "VariableFlipAngleFlag": "N",
      "WindowCenterWidthExplanation": "Algo1",
      "dBdt": 0.0},
    "slices": {
      "AcquisitionTime": ["094709.467500", "094709.207500", "094709.480000", "094709.220000", "094709.492500", "094709.232500", "094709.505000", "094709.245000", "094709.517500", "094709.257500", "094709.530000", "094709.270000", "094709.542500", "094709.282500", "094709.555000", "094709.295000", "094709.567500", "094709.307500", "094709.580000", "094709.320000", "094709.592500", "094709.332500", "094709.605000", "094709.345000", "094709.615000", "094709.355000", "094709.627500", "094709.367500", "094709.640000", "094709.380000", "094709.652500", "094709.392500", "094709.665000", "094709.405000", "094709.677500", "094709.417500", "094709.690000", "094709.430000", "094709.702500", "094709.442500", "094709.715000", "094709.455000"],
      "ContentTime": ["094839.694000", "094839.638000", "094839.696000", "094839.648000", "094839.698000", "094839.651000", "094839.700000", "094839.653000", "094839.703000", "094839.655000", "094839.705000", "094839.657000", "094839.707000", "094839.660000", "094839.709000", "094839.662000", "094839.712000", "094839.664000", "094839.714000", "094839.666000", "094839.716000", "094839.669000", "094839.718000", "094839.671000", "094839.721000", "094839.673000", "094839.723000", "094839.675000", "094839.725000", "094839.677000", "094839.727000", "094839.680000", "094839.729000", "094839.682000", "094839.731000", "094839.684000", "094839.734000", "094839.687000", "094839.736000", "094839.690000", "094839.738000", "094839.692000"],
      "CsaImage.ICE_Dims": [
        "X_2_1_1_1_1_1_22_1_1_1_1_46",
        "X_2_1_1_1_1_1_1_1_1_2_1_46",
        "X_2_1_1_1_1_1_23_1_1_3_1_46",
        "X_2_1_1_1_1_1_2_1_1_4_1_46",
        "X_2_1_1_1_1_1_24_1_1_5_1_46",
        "X_2_1_1_1_1_1_3_1_1_6_1_46",
        "X_2_1_1_1_1_1_25_1_1_7_1_46",
        "X_2_1_1_1_1_1_4_1_1_8_1_46",
        "X_2_1_1_1_1_1_26_1_1_9_1_46",
        "X_2_1_1_1_1_1_5_1_1_10_1_46",
        "X_2_1_1_1_1_1_27_1_1_11_1_46",
        "X_2_1_1_1_1_1_6_1_1_12_1_46",
        "X_2_1_1_1_1_1_28_1_1_13_1_46",
        "X_2_1_1_1_1_1_7_1_1_14_1_46",
        "X_2_1_1_1_1_1_29_1_1_15_1_46",
        "X_2_1_1_1_1_1_8_1_1_16_1_46",
        "X_2_1_1_1_1_1_30_1_1_17_1_46",
        "X_2_1_1_1_1_1_9_1_1_18_1_46",
        "X_2_1_1_1_1_1_31_1_1_19_1_46",
        "X_2_1_1_1_1_1_10_1_1_20_1_46",
        "X_2_1_1_1_1_1_32_1_1_21_1_46",
        "X_2_1_1_1_1_1_11_1_1_22_1_46",
        "X_2_1_1_1_1_1_33_1_1_23_1_46",
        "X_2_1_1_1_1_1_12_1_1_24_1_46",
        "X_2_1_1_1_1_1_34_1_1_25_1_46",
        "X_2_1_1_1_1_1_13_1_1_26_1_46",
        "X_2_1_1_1_1_1_35_1_1_27_1_46",
        "X_2_1_1_1_1_1_14_1_1_28_1_46",
        "X_2_1_1_1_1_1_36_1_1_29_1_46",
        "X_2_1_1_1_1_1_15_1_1_30_1_46",
        "X_2_1_1_1_1_1_37_1_1_31_1_46",
        "X_2_1_1_1_1_1_16_1_1_32_1_46",
        "X_2_1_1_1_1_1_38_1_1_33_1_46",
        "X_2_1_1_1_1_1_17_1_1_34_1_46",
        "X_2_1_1_1_1_1_39_1_1_35_1_46",
        "X_2_1_1_1_1_1_18_1_1_36_1_46",
        "X_2_1_1_1_1_1_40_1_1_37_1_46",
        "X_2_1_1_1_1_1_19_1_1_38_1_46",
        "X_2_1_1_1_1_1_41_1_1_39_1_46",
        "X_2_1_1_1_1_1_20_1_1_40_1_46",
        "X_2_1_1_1_1_1_42_1_1_41_1_46",
        "X_2_1_1_1_1_1_21_1_1_42_1_46"
],
      "CsaImage.ProtocolSliceNumber": [0, 1, 2, 3, 4, 5, 6, 7, 8, 9, 10, 11, 12, 13, 14, 15, 16, 17, 18, 19, 20, 21, 22, 23, 24, 25, 26, 27, 28, 29, 30, 31, 32, 33, 34, 35, 36, 37, 38, 39, 40, 41],
      "CsaImage.SlicePosition_PCS": [
        [-124.20481932, -67.74012897, -114.07381726],
        [-124.20481932, -69.30306003, -110.89752484],
        [-124.20481932, -70.86599109, -107.7212286],
        [-124.20481932, -72.42892215, -104.54493618],
        [-124.20481932, -73.99185322, -101.36863995],
        [-124.20481932, -75.55478428, -98.19234371],
        [-124.20481932, -77.11771534, -95.0160513],
        [-124.20481932, -78.68064449, -91.83975506],
        [-124.20481932, -80.24357555, -88.66346264],
        [-124.20481932, -81.80650661, -85.48716641],
        [-124.20481932, -83.36943577, -82.31087208],
        [-124.20481932, -84.93236683, -79.13457775],
        [-124.20481932, -86.49529789, -75.95828343],
        [-124.20481932, -88.05822895, -72.7819891],
        [-124.20481932, -89.62116001, -69.60569382],
        [-124.20481932, -91.18409107, -66.42939949],
        [-124.20481932, -92.74702022, -63.25310517],
        [-124.20481932, -94.30995128, -60.07680989],
        [-124.20481932, -95.87288234, -56.90051556],
        [-124.20481932, -97.43581341, -53.72422081],
        [-124.20481932, -98.99874351, -50.54792619],
        [-124.20481932, -100.56167457, -47.37163162],
        [-124.20481932, -102.12460563, -44.1953373],
        [-124.20481932, -103.68753574, -41.01904202],
        [-124.20481932, -105.2504668, -37.84274769],
        [-124.20481932, -106.81339739, -34.66645336],
        [-124.20481932, -108.37632809, -31.49015904],
        [-124.20481932, -109.93925885, -28.31386471],
        [-124.20481932, -111.50218961, -25.13756848],
        [-124.20481932, -113.0651202, -21.96127606],
        [-124.20481932, -114.62805078, -18.78497982],
        [-124.20481932, -116.19098184, -15.60868359],
        [-124.20481932, -117.75391243, -12.43239117],
        [-124.20481932, -119.31684349, -9.25609494],
        [-124.20481932, -120.8797736, -6.07980252],
        [-124.20481932, -122.44270466, -2.90350628],
        [-124.20481932, -124.00563572, 0.27278614],
        [-124.20481932, -125.56856582, 3.44908237],
        [-124.20481932, -127.13149593, 6.62537861],
        [-124.20481932, -128.69442699, 9.80167484],
        [-124.20481932, -130.25735805, 12.97796726],
        [-124.20481932, -131.82028911, 16.15425968]
],
      "CsaImage.TimeAfterStart": [0.7825, 0.5225, 0.795, 0.535, 0.8075, 0.5475, 0.82, 0.56, 0.8325, 0.5725, 0.845, 0.585, 0.8575, 0.5975, 0.87, 0.61, 0.8825, 0.6225, 0.895, 0.635, 0.9075, 0.6475, 0.92, 0.66, 0.93, 0.67, 0.9425, 0.6825, 0.955, 0.695, 0.9675, 0.7075, 0.98, 0.72, 0.9925, 0.7325, 1.005, 0.745, 1.0175, 0.7575, 1.03, 0.77],
      "ImagePositionPatient": [
        [-124.20481932163, -67.740128972536, -114.07381725572],
        [-124.20481932163, -69.303060033327, -110.89752483629],
        [-124.20481932163, -70.865991094118, -107.72122860216],
        [-124.20481932163, -72.428922154909, -104.54493618273],
        [-124.20481932163, -73.9918532157, -101.3686399486],
        [-124.20481932163, -75.554784276491, -98.192343714464],
        [-124.20481932163, -77.117715337282, -95.016051295031],
        [-124.20481932163, -78.680644490724, -91.8397550609],
        [-124.20481932163, -80.243575551515, -88.663462641466],
        [-124.20481932163, -81.806506612306, -85.487166407335],
        [-124.20481932163, -83.369435765748, -82.310872080553],
        [-124.20481932163, -84.932366826539, -79.134577753771],
        [-124.20481932163, -86.49529788733, -75.958283426989],
        [-124.20481932163, -88.058228948121, -72.781989100206],
        [-124.20481932163, -89.621160008912, -69.60569381975],
        [-124.20481932163, -91.184091069703, -66.429399492968],
        [-124.20481932163, -92.747020223146, -63.253105166185],
        [-124.20481932163, -94.309951283937, -60.076809885729],
        [-124.20481932163, -95.872882344728, -56.900515558947],
        [-124.20481932163, -97.435813405519, -53.724220814932],
        [-124.20481932163, -98.998743512636, -50.547926190126],
        [-124.20481932163, -100.56167457343, -47.371631624926],
        [-124.20481932163, -102.12460563422, -44.195337298143],
        [-124.20481932163, -103.68753574133, -41.019042017687],
        [-124.20481932163, -105.25046680213, -37.842747690905],
        [-124.20481932163, -106.81339738608, -34.666453364122],
        [-124.20481932163, -108.37632808924, -31.49015903734],
        [-124.20481932163, -109.93925885201, -28.313864710558],
        [-124.20481932163, -111.50218961478, -25.137568476427],
        [-124.20481932163, -113.06512019873, -21.961276056993],
        [-124.20481932163, -114.62805078269, -18.784979822863],
        [-124.20481932163, -116.19098184348, -15.608683588732],
        [-124.20481932163, -117.75391242743, -12.432391169298],
        [-124.20481932163, -119.31684348822, -9.2560949351673],
        [-124.20481932163, -120.87977359534, -6.0798025157337],
        [-124.20481932163, -122.44270465613, -2.9035062816028],
        [-124.20481932163, -124.00563571692, 0.27278613783076],
        [-124.20481932163, -125.56856582404, 3.4490823719616],
        [-124.20481932163, -127.13149593115, 6.6253786060925],
        [-124.20481932163, -128.69442699194, 9.8016748402233],
        [-124.20481932163, -130.25735805274, 12.977967259657],
        [-124.20481932163, -131.82028911353, 16.154259679091]
],
      "InstanceCreationTime": ["094839.694000", "094839.638000", "094839.696000", "094839.648000", "094839.698000", "094839.651000", "094839.700000", "094839.653000", "094839.703000", "094839.655000", "094839.705000", "094839.657000", "094839.707000", "094839.660000", "094839.709000", "094839.662000", "094839.712000", "094839.664000", "094839.714000", "094839.666000", "094839.716000", "094839.669000", "094839.718000", "094839.671000", "094839.721000", "094839.673000", "094839.723000", "094839.675000", "094839.725000", "094839.677000", "094839.727000", "094839.680000", "094839.729000", "094839.682000", "094839.731000", "094839.684000", "094839.734000", "094839.687000", "094839.736000", "094839.690000", "094839.738000", "094839.692000"],
      "InstanceNumber": [1, 2, 3, 4, 5, 6, 7, 8, 9, 10, 11, 12, 13, 14, 15, 16, 17, 18, 19, 20, 21, 22, 23, 24, 25, 26, 27, 28, 29, 30, 31, 32, 33, 34, 35, 36, 37, 38, 39, 40, 41, 42],
      "LargestImagePixelValue": [4095, 4094, 4095, 4094, 4094, 4093, 4094, 4091, 4095, 4094, 4094, 4093, 4095, 4094, 4094, 4087, 4094, 4090, 4093, 4092, 4094, 4092, 4093, 4089, 4094, 4094, 4095, 4094, 4093, 4094, 4094, 4090, 4092, 4095, 4093, 4095, 4095, 4094, 4091, 4094, 4095, 4094],
      "SliceLocation": [-72.446023164934, -68.906024996215, -65.366023404727, -61.826025236008, -58.28602364452, -54.746022053031, -51.206023884312, -47.66602313493, -44.12602496621, -40.586023374722, -37.046024336724, -33.50602445662, -29.966024576517, -26.426024696413, -22.886023960617, -19.346024080513, -15.806025042515, -12.266024306719, -8.7260244266157, -5.1860241721466, -1.6460244456919, 1.8939756483348, 5.4339755284385, 8.9739758431817, 12.513975723285, 16.053975392863, 19.593975115072, 23.133974863596, 26.673976323505, 30.213974281698, 33.75397566266, 37.293977254148, 40.833975212341, 44.373976803829, 47.913974551496, 51.453976142984, 54.993974311703, 58.533975482138, 62.073976652574, 65.613978244062, 69.153976412781, 72.6939745815],
      "SmallestImagePixelValue": [1, 1, 2, 1, 1, 7, 2, 0, 0, 2, 0, 0, 0, 1, 2, 5, 0, 0, 0, 0, 1, 9, 0, 1, 4, 0, 2, 6, 0, 1, 0, 0, 2, 0, 1, 0, 0, 0, 0, 1, 0, 0],
      "WindowCenter": [-680.0, -538.0, -516.0, -500.0, -564.0, -474.0, -400.0, -476.0, -454.0, -434.0, -434.0, -452.0, -524.0, -440.0, -362.0, -348.0, -356.0, -288.0, -302.0, -232.0, -264.0, -220.0, -186.0, -190.0, -176.0, -156.0, -156.0, -170.0, -246.0, -232.0, -272.0, -244.0, -280.0, -294.0, -318.0, -320.0, -396.0, -340.0, -356.0, -366.0, -458.0, -420.0],
      "WindowWidth": [4866.0, 4696.0, 4716.0, 4698.0, 4728.0, 4766.0, 4862.0, 4918.0, 4898.0, 4890.0, 4920.0, 4842.0, 4836.0, 4678.0, 4638.0, 4536.0, 4530.0, 4454.0, 4510.0, 4456.0, 4504.0, 4460.0, 4440.0, 4454.0, 4412.0, 4386.0, 4412.0, 4404.0, 4416.0, 4440.0, 4524.0, 4560.0, 4600.0, 4664.0, 4772.0, 4812.0, 4826.0, 4920.0, 4942.0, 5046.0, 5082.0, 5100.0]
    }
  }
}