{
  "AcquisitionMatrixPE": 122,
  "AcquisitionNumber": 1,
  "AcquisitionTime": "10:27:44.097500",
  "BandwidthPerPixelPhaseEncode": 22.769,
  "BodyPartExamined": "BRAIN",
  "CoilString": "HE1-4;NE1_2",
  "ConversionSoftware": "dcm2niix",
  "ConversionSoftwareVersion": "v1.0.20190410  GCC6.3.0",
  "DerivedVendorReportedEchoSpacing": 0.00071999,
  "DeviceSerialNumber": "145028",
  "DwellTime": 2.6e-06,
  "EchoTime": 0.094,
  "EchoTrainLength": 46,
  "EffectiveEchoSpacing": 0.000359995,
  "FlipAngle": 90,
  "ImageOrientationPatientDICOM": [1, 0, 0, 0, 0.897258, 0.441506],
  "ImageType": [
    "ORIGINAL",
    "PRIMARY",
    "M",
    "ND",
    "NORM"
],
  "ImagingFrequency": 123.26,
  "InPlanePhaseEncodingDirectionDICOM": "COL",
  "InstitutionAddress": "Tremona_Road_StreetNo_Southampton_District_GB_SO16_6YD",
  "InstitutionName": "UHS_SMR1",
  "InstitutionalDepartmentName": "Department",
  "MRAcquisitionType": "2D",
  "MagneticFieldStrength": 3,
  "Manufacturer": "Siemens",
  "ManufacturersModelName": "Skyra",
  "Modality": "MR",
  "ParallelReductionFactorInPlane": 2,
  "PatientPosition": "HFS",
  "PercentPhaseFOV": 100,
  "PhaseEncodingDirection": "j-",
  "PhaseEncodingSteps": 92,
  "PixelBandwidth": 1575,
  "ProcedureStepDescription": "MRI_Head",
  "ProtocolName": "ep2d_se_phase_AP_2meas",
  "ReconMatrixPE": 122,
  "RepetitionTime": 9.01,
  "SAR": 0.315365,
  "ScanOptions": "PFP_FS",
  "ScanningSequence": "EP",
  "SequenceName": "_epse2d1_122",
  "SequenceVariant": "SK_SP",
  "SeriesDescription": "ep2d_se_phase_AP_2meas",
  "SeriesNumber": 24,
  "SliceThickness": 2.3,
  "SliceTiming": [0.004505, -0.001, -0.001, -0.001, -0.001, -0.001, -0.001, -0.001, -0.001, -0.001, -0.001, -0.001, -0.001, -0.001, -0.001, -0.001, -0.001, -0.001, -0.001, -0.001, -0.001, -0.001, -0.001, -0.001, -0.001, -0.001, -0.001, -0.001, -0.001, -0.001, -0.001, -0.001, -0.001, -0.001, -0.001, -0.001, -0.001, -0.001, -0.001, -0.001, -0.001, -0.001, -0.001, -0.001, -0.001, -0.001, -0.001, -0.001, -0.001, -0.001, -0.001, -0.001, -0.001, -0.001, -0.001, -0.001, -0.001, -0.001, -0.001, -0.001, -0.001, -0.001, -0.001, -0.001, -0.001, -0.001, -0.001, -0.001],
  "SoftwareVersions": "syngo_MR_E11",
  "SpacingBetweenSlices": 2.3,
  "StationName": "AWP145028",
  "TotalReadoutTime": 0.0435594,
  "dcmmeta_affine": [
    [-2.295081853866577, 0.0, 0.0, 141.20481872558594],
    [0.0, 2.059281349182129, 1.015462875366211, -168.15744018554688],
    [0.0, -1.0132920742034912, 2.0636978149414062, -2.9910261631011963],
    [0.0, 0.0, 0.0, 1.0]
],
  "dcmmeta_reorient_transform": [
    [0.0, -1.0, 0.0, 121.0],
    [1.0, 0.0, 0.0, 0.0],
    [0.0, 0.0, -1.0, 67.0],
    [0.0, 0.0, 0.0, 1.0]
],
  "dcmmeta_shape": [122, 122, 68, 2],
  "dcmmeta_slice_dim": 2,
  "dcmmeta_version": 0.6,
  "global": {
    "const": {
      "AcquisitionMatrix": [122, 0, 0, 122],
      "AngioFlag": "N",
      "BitsAllocated": 16,
      "BitsStored": 12,
      "BodyPartExamined": "BRAIN",
      "Columns": 122,
      "EchoNumbers": 1,
      "EchoTime": 94.0,
      "EchoTrainLength": 46,
      "FlipAngle": 90.0,
      "HighBit": 11,
      "ImageOrientationPatient": [1.0, 0.0, 0.0, 0.0, 0.8972583668213, 0.44150585858987],
      "ImageType": [
        "ORIGINAL",
        "PRIMARY",
        "M",
        "ND",
        "NORM"
],
      "ImagedNucleus": "1H",
      "ImagingFrequency": 123.260201,
      "InPlanePhaseEncodingDirection": "COL",
      "MRAcquisitionType": "2D",
      "MagneticFieldStrength": 3.0,
      "Manufacturer": "SIEMENS",
      "ManufacturerModelName": "Skyra",
      "Modality": "MR",
      "NumberOfAverages": 1.0,
      "NumberOfPhaseEncodingSteps": 92,
      "PercentPhaseFieldOfView": 100.0,
      "PercentSampling": 100.0,
      "PerformedProcedureStepStartTime": "092154.931000",
      "PhotometricInterpretation": "MONOCHROME2",
      "PixelBandwidth": 1575.0,
      "PixelRepresentation": 0,
      "PixelSpacing": [2.2950818538666, 2.2950818538666],
      "ProcedureCodeSequence": [
        {
          "CodeMeaning": "MRI Head",
          "CodeValue": "MSKUH",
          "CodingSchemeDesignator": "NICIP"
        }
],
      "ProtocolName": "ep2d_se_phase_AP_2meas",
      "RepetitionTime": 9010.0,
      "RequestAttributesSequence": [
        {
          "RequestedProcedureID": "MSKUH",
          "ScheduledProcedureStepDescription": "MRI Head",
          "ScheduledProcedureStepID": "70456890",
          "ScheduledProtocolCodeSequence": [
            {
              "CodeMeaning": "MRI Head",
              "CodeValue": "MSKUH",
              "CodingSchemeDesignator": "NICIP"
            }
]
        }
],
      "RequestedProcedureCodeSequence": [
        {
          "CodeMeaning": "MRI Head",
          "CodeValue": "MSKUH",
          "CodingSchemeDesignator": "NICIP"
        }
],
      "Rows": 122,
      "SAR": 0.3153646082261,
      "SamplesPerPixel": 1,
      "ScanOptions": [
        "PFP",
        "FS"
],
      "ScanningSequence": "EP",
      "SequenceName": "*epse2d1_122",
      "SequenceVariant": [
        "SK",
        "SP"
],
      "SeriesDescription": "ep2d_se_phase_AP_2meas",
      "SeriesNumber": 24,
      "SeriesTime": "102748.860000",
      "SliceThickness": 2.2999999523163,
      "SmallestImagePixelValue": 0,
      "SoftwareVersions": "syngo MR E11",
      "SpacingBetweenSlices": 2.3,
      "SpecificCharacterSet": "ISO_IR 100",
      "StudyID": "MSKUH",
      "StudyTime": "092154.734000",
      "TransmitCoilName": "Body",
      "VariableFlipAngleFlag": "N",
      "WindowCenterWidthExplanation": "Algo1",
      "dBdt": 0.0},
    "slices": {
      "AcquisitionTime": ["102744.097500", "102739.592500", "102744.230000", "102739.725000", "102744.362500", "102739.857500", "102744.495000", "102739.990000", "102744.627500", "102740.122500", "102744.760000", "102740.255000", "102744.892500", "102740.387500", "102745.025000", "102740.520000", "102745.157500", "102740.652500", "102745.290000", "102740.785000", "102745.422500", "102740.917500", "102745.555000", "102741.050000", "102745.687500", "102741.182500", "102745.820000", "102741.315000", "102745.952500", "102741.447500", "102746.085000", "102741.580000", "102746.217500", "102741.712500", "102746.350000", "102741.845000", "102746.482500", "102741.977500", "102746.615000", "102742.110000", "102746.745000", "102742.242500", "102746.877500", "102742.375000", "102747.010000", "102742.507500", "102747.142500", "102742.640000", "102747.275000", "102742.772500", "102747.407500", "102742.905000", "102747.540000", "102743.037500", "102747.672500", "102743.170000", "102747.805000", "102743.302500", "102747.937500", "102743.435000", "102748.070000", "102743.567500", "102748.202500", "102743.700000", "102748.335000", "102743.832500", "102748.467500", "102743.965000", "102753.107500", "102748.602500", "102753.240000", "102748.735000", "102753.372500", "102748.867500", "102753.505000", "102749.000000", "102753.637500", "102749.132500", "102753.770000", "102749.265000", "102753.902500", "102749.397500", "102754.035000", "102749.530000", "102754.167500", "102749.662500", "102754.300000", "102749.795000", "102754.432500", "102749.927500", "102754.565000", "102750.060000", "102754.697500", "102750.192500", "102754.830000", "102750.325000", "102754.962500", "102750.457500", "102755.095000", "102750.590000", "102755.227500", "102750.722500", "102755.360000", "102750.855000", "102755.492500", "102750.987500", "102755.625000", "102751.120000", "102755.755000", "102751.252500", "102755.887500", "102751.385000", "102756.020000", "102751.517500", "102756.152500", "102751.650000", "102756.285000", "102751.782500", "102756.417500", "102751.915000", "102756.550000", "102752.047500", "102756.682500", "102752.180000", "102756.815000", "102752.312500", "102756.947500", "102752.445000", "102757.080000", "102752.577500", "102757.212500", "102752.710000", "102757.345000", "102752.842500", "102757.477500", "102752.975000"],
      "ContentTime": ["102748.974000", "102748.864000", "102748.976000", "102748.867000", "102748.979000", "102748.870000", "102801.906000", "102748.882000", "102801.909000", "102748.884000", "102801.912000", "102748.886000", "102801.914000", "102748.888000", "102801.916000", "102748.891000", "102801.918000", "102748.893000", "102801.920000", "102748.895000", "102801.922000", "102748.898000", "102801.925000", "102748.900000", "102801.927000", "102748.902000", "102801.929000", "102748.905000", "102801.931000", "102748.911000", "102801.934000", "102748.914000", "102801.936000", "102748.916000", "102801.938000", "102748.934000", "102801.940000", "102748.937000", "102801.942000", "102748.939000", "102801.945000", "102748.941000", "102801.947000", "102748.944000", "102801.949000", "102748.946000", "102801.951000", "102748.949000", "102801.953000", "102748.951000", "102801.955000", "102748.953000", "102801.958000", "102748.955000", "102801.960000", "102748.957000", "102801.962000", "102748.960000", "102801.964000", "102748.962000", "102801.966000", "102748.964000", "102801.969000", "102748.967000", "102801.971000", "102748.969000", "102801.973000", "102748.971000", "102802.054000", "102801.975000", "102802.056000", "102801.977000", "102802.059000", "102801.979000", "102802.061000", "102801.982000", "102802.063000", "102801.984000", "102802.065000", "102801.986000", "102802.068000", "102801.988000", "102802.070000", "102801.990000", "102802.073000", "102801.993000", "102802.075000", "102801.995000", "102802.077000", "102801.997000", "102802.080000", "102802.000000", "102802.082000", "102802.006000", "102802.084000", "102802.008000", "102802.086000", "102802.010000", "102802.088000", "102802.012000", "102802.091000", "102802.015000", "102802.093000", "102802.017000", "102802.095000", "102802.019000", "102802.097000", "102802.021000", "102802.099000", "102802.023000", "102802.101000", "102802.026000", "102802.106000", "102802.028000", "102802.108000", "102802.030000", "102802.110000", "102802.032000", "102802.113000", "102802.034000", "102802.115000", "102802.037000", "102802.117000", "102802.039000", "102802.119000", "102802.041000", "102802.121000", "102802.043000", "102802.123000", "102802.045000", "102802.126000", "102802.048000", "102802.128000", "102802.050000", "102802.130000", "102802.052000"],
      "CsaImage.ICE_Dims": [
        "X_1_1_1_1_1_1_35_1_1_1_1_67",
        "X_1_1_1_1_1_1_1_1_1_2_1_67",
        "X_1_1_1_1_1_1_36_1_1_3_1_67",
        "X_1_1_1_1_1_1_2_1_1_4_1_67",
        "X_1_1_1_1_1_1_37_1_1_5_1_67",
        "X_1_1_1_1_1_1_3_1_1_6_1_67",
        "X_1_1_1_1_1_1_38_1_1_7_1_67",
        "X_1_1_1_1_1_1_4_1_1_8_1_67",
        "X_1_1_1_1_1_1_39_1_1_9_1_67",
        "X_1_1_1_1_1_1_5_1_1_10_1_67",
        "X_1_1_1_1_1_1_40_1_1_11_1_67",
        "X_1_1_1_1_1_1_6_1_1_12_1_67",
        "X_1_1_1_1_1_1_41_1_1_13_1_67",
        "X_1_1_1_1_1_1_7_1_1_14_1_67",
        "X_1_1_1_1_1_1_42_1_1_15_1_67",
        "X_1_1_1_1_1_1_8_1_1_16_1_67",
        "X_1_1_1_1_1_1_43_1_1_17_1_67",
        "X_1_1_1_1_1_1_9_1_1_18_1_67",
        "X_1_1_1_1_1_1_44_1_1_19_1_67",
        "X_1_1_1_1_1_1_10_1_1_20_1_67",
        "X_1_1_1_1_1_1_45_1_1_21_1_67",
        "X_1_1_1_1_1_1_11_1_1_22_1_67",
        "X_1_1_1_1_1_1_46_1_1_23_1_67",
        "X_1_1_1_1_1_1_12_1_1_24_1_67",
        "X_1_1_1_1_1_1_47_1_1_25_1_67",
        "X_1_1_1_1_1_1_13_1_1_26_1_67",
        "X_1_1_1_1_1_1_48_1_1_27_1_67",
        "X_1_1_1_1_1_1_14_1_1_28_1_67",
        "X_1_1_1_1_1_1_49_1_1_29_1_67",
        "X_1_1_1_1_1_1_15_1_1_30_1_67",
        "X_1_1_1_1_1_1_50_1_1_31_1_67",
        "X_1_1_1_1_1_1_16_1_1_32_1_67",
        "X_1_1_1_1_1_1_51_1_1_33_1_67",
        "X_1_1_1_1_1_1_17_1_1_34_1_67",
        "X_1_1_1_1_1_1_52_1_1_35_1_67",
        "X_1_1_1_1_1_1_18_1_1_36_1_67",
        "X_1_1_1_1_1_1_53_1_1_37_1_67",
        "X_1_1_1_1_1_1_19_1_1_38_1_67",
        "X_1_1_1_1_1_1_54_1_1_39_1_67",
        "X_1_1_1_1_1_1_20_1_1_40_1_67",
        "X_1_1_1_1_1_1_55_1_1_41_1_67",
        "X_1_1_1_1_1_1_21_1_1_42_1_67",
        "X_1_1_1_1_1_1_56_1_1_43_1_67",
        "X_1_1_1_1_1_1_22_1_1_44_1_67",
        "X_1_1_1_1_1_1_57_1_1_45_1_67",
        "X_1_1_1_1_1_1_23_1_1_46_1_67",
        "X_1_1_1_1_1_1_58_1_1_47_1_67",
        "X_1_1_1_1_1_1_24_1_1_48_1_67",
        "X_1_1_1_1_1_1_59_1_1_49_1_67",
        "X_1_1_1_1_1_1_25_1_1_50_1_67",
        "X_1_1_1_1_1_1_60_1_1_51_1_67",
        "X_1_1_1_1_1_1_26_1_1_52_1_67",
        "X_1_1_1_1_1_1_61_1_1_53_1_67",
        "X_1_1_1_1_1_1_27_1_1_54_1_67",
        "X_1_1_1_1_1_1_62_1_1_55_1_67",
        "X_1_1_1_1_1_1_28_1_1_56_1_67",
        "X_1_1_1_1_1_1_63_1_1_57_1_67",
        "X_1_1_1_1_1_1_29_1_1_58_1_67",
        "X_1_1_1_1_1_1_64_1_1_59_1_67",
        "X_1_1_1_1_1_1_30_1_1_60_1_67",
        "X_1_1_1_1_1_1_65_1_1_61_1_67",
        "X_1_1_1_1_1_1_31_1_1_62_1_67",
        "X_1_1_1_1_1_1_66_1_1_63_1_67",
        "X_1_1_1_1_1_1_32_1_1_64_1_67",
        "X_1_1_1_1_1_1_67_1_1_65_1_67",
        "X_1_1_1_1_1_1_33_1_1_66_1_67",
        "X_1_1_1_1_1_1_68_1_1_67_1_67",
        "X_1_1_1_1_1_1_34_1_1_68_1_67",
        "X_1_1_1_2_1_1_35_1_1_1_1_67",
        "X_1_1_1_2_1_1_1_1_1_2_1_67",
        "X_1_1_1_2_1_1_36_1_1_3_1_67",
        "X_1_1_1_2_1_1_2_1_1_4_1_67",
        "X_1_1_1_2_1_1_37_1_1_5_1_67",
        "X_1_1_1_2_1_1_3_1_1_6_1_67",
        "X_1_1_1_2_1_1_38_1_1_7_1_67",
        "X_1_1_1_2_1_1_4_1_1_8_1_67",
        "X_1_1_1_2_1_1_39_1_1_9_1_67",
        "X_1_1_1_2_1_1_5_1_1_10_1_67",
        "X_1_1_1_2_1_1_40_1_1_11_1_67",
        "X_1_1_1_2_1_1_6_1_1_12_1_67",
        "X_1_1_1_2_1_1_41_1_1_13_1_67",
        "X_1_1_1_2_1_1_7_1_1_14_1_67",
        "X_1_1_1_2_1_1_42_1_1_15_1_67",
        "X_1_1_1_2_1_1_8_1_1_16_1_67",
        "X_1_1_1_2_1_1_43_1_1_17_1_67",
        "X_1_1_1_2_1_1_9_1_1_18_1_67",
        "X_1_1_1_2_1_1_44_1_1_19_1_67",
        "X_1_1_1_2_1_1_10_1_1_20_1_67",
        "X_1_1_1_2_1_1_45_1_1_21_1_67",
        "X_1_1_1_2_1_1_11_1_1_22_1_67",
        "X_1_1_1_2_1_1_46_1_1_23_1_67",
        "X_1_1_1_2_1_1_12_1_1_24_1_67",
        "X_1_1_1_2_1_1_47_1_1_25_1_67",
        "X_1_1_1_2_1_1_13_1_1_26_1_67",
        "X_1_1_1_2_1_1_48_1_1_27_1_67",
        "X_1_1_1_2_1_1_14_1_1_28_1_67",
        "X_1_1_1_2_1_1_49_1_1_29_1_67",
        "X_1_1_1_2_1_1_15_1_1_30_1_67",
        "X_1_1_1_2_1_1_50_1_1_31_1_67",
        "X_1_1_1_2_1_1_16_1_1_32_1_67",
        "X_1_1_1_2_1_1_51_1_1_33_1_67",
        "X_1_1_1_2_1_1_17_1_1_34_1_67",
        "X_1_1_1_2_1_1_52_1_1_35_1_67",
        "X_1_1_1_2_1_1_18_1_1_36_1_67",
        "X_1_1_1_2_1_1_53_1_1_37_1_67",
        "X_1_1_1_2_1_1_19_1_1_38_1_67",
        "X_1_1_1_2_1_1_54_1_1_39_1_67",
        "X_1_1_1_2_1_1_20_1_1_40_1_67",
        "X_1_1_1_2_1_1_55_1_1_41_1_67",
        "X_1_1_1_2_1_1_21_1_1_42_1_67",
        "X_1_1_1_2_1_1_56_1_1_43_1_67",
        "X_1_1_1_2_1_1_22_1_1_44_1_67",
        "X_1_1_1_2_1_1_57_1_1_45_1_67",
        "X_1_1_1_2_1_1_23_1_1_46_1_67",
        "X_1_1_1_2_1_1_58_1_1_47_1_67",
        "X_1_1_1_2_1_1_24_1_1_48_1_67",
        "X_1_1_1_2_1_1_59_1_1_49_1_67",
        "X_1_1_1_2_1_1_25_1_1_50_1_67",
        "X_1_1_1_2_1_1_60_1_1_51_1_67",
        "X_1_1_1_2_1_1_26_1_1_52_1_67",
        "X_1_1_1_2_1_1_61_1_1_53_1_67",
        "X_1_1_1_2_1_1_27_1_1_54_1_67",
        "X_1_1_1_2_1_1_62_1_1_55_1_67",
        "X_1_1_1_2_1_1_28_1_1_56_1_67",
        "X_1_1_1_2_1_1_63_1_1_57_1_67",
        "X_1_1_1_2_1_1_29_1_1_58_1_67",
        "X_1_1_1_2_1_1_64_1_1_59_1_67",
        "X_1_1_1_2_1_1_30_1_1_60_1_67",
        "X_1_1_1_2_1_1_65_1_1_61_1_67",
        "X_1_1_1_2_1_1_31_1_1_62_1_67",
        "X_1_1_1_2_1_1_66_1_1_63_1_67",
        "X_1_1_1_2_1_1_32_1_1_64_1_67",
        "X_1_1_1_2_1_1_67_1_1_65_1_67",
        "X_1_1_1_2_1_1_33_1_1_66_1_67",
        "X_1_1_1_2_1_1_68_1_1_67_1_67",
        "X_1_1_1_2_1_1_34_1_1_68_1_67"
],
      "CsaImage.RFSWDDataType": [
        "predicted",
        "predicted",
        "predicted",
        "predicted",
        "predicted",
        "predicted",
        "predicted",
        "predicted",
        "predicted",
        "predicted",
        "predicted",
        "predicted",
        "predicted",
        "predicted",
        "predicted",
        "predicted",
        "predicted",
        "predicted",
        "predicted",
        "predicted",
        "predicted",
        "predicted",
        "predicted",
        "predicted",
        "predicted",
        "predicted",
        "predicted",
        "predicted",
        "predicted",
        "predicted",
        "predicted",
        "predicted",
        "predicted",
        "predicted",
        "predicted",
        "predicted",
        "predicted",
        "predicted",
        "predicted",
        "predicted",
        "predicted",
        "predicted",
        "predicted",
        "predicted",
        "predicted",
        "predicted",
        "predicted",
        "predicted",
        "predicted",
        "predicted",
        "predicted",
        "predicted",
        "predicted",
        "predicted",
        "predicted",
        "predicted",
        "predicted",
        "predicted",
        "predicted",
        "predicted",
        "predicted",
        "predicted",
        "predicted",
        "predicted",
        "predicted",
        "predicted",
        "predicted",
        "predicted",
        "predicted",
        "predicted",
        "predicted",
        "predicted",
        "predicted",
        "predicted",
        "predicted",
        "predicted",
        "predicted",
        "predicted",
        "predicted",
        "predicted",
        "predicted",
        "predicted",
        "predicted",
        "predicted",
        "predicted",
        "predicted",
        "predicted",
        "predicted",
        "predicted",
        "predicted",
        "predicted",
        "predicted",
        "predicted",
        "predicted",
        "predicted",
        "predicted",
        "predicted",
        "predicted",
        "predicted",
        "predicted",
        "predicted",
        "predicted",
        "predicted",
        "predicted",
        "predicted",
        "predicted",
        "predicted",
        "predicted",
        "predicted",
        "predicted",
        "predicted",
        "predicted",
        "predicted",
        "predicted",
        "predicted",
        "predicted",
        "predicted",
        "predicted",
        "predicted",
        "predicted",
        "predicted",
        "predicted",
        "predicted",
        "predicted",
        "predicted",
        "predicted",
        "predicted",
        "predicted",
        "predicted",
        "predicted",
        "predicted",
        "predicted",
        "predicted",
        "predicted",
        "measured",
        "predicted"
],
      "CsaImage.TimeAfterStart": [4.505, 0.0, 4.6375, 0.1325, 4.77, 0.265, 4.9025, 0.3975, 5.035, 0.53, 5.1675, 0.6625, 5.3, 0.795, 5.4325, 0.9275, 5.565, 1.06, 5.6975, 1.1925, 5.83, 1.325, 5.9625, 1.4575, 6.095, 1.59, 6.2275, 1.7225, 6.36, 1.855, 6.4925, 1.9875, 6.625, 2.12, 6.7575, 2.2525, 6.89, 2.385, 7.0225, 2.5175, 7.155, 2.65, 7.2875, 2.7825, 7.42, 2.915, 7.5525, 3.0475, 7.685, 3.18, 7.8175, 3.3125, 7.95, 3.445, 8.0825, 3.5775, 8.215, 3.71, 8.3475, 3.8425, 8.48, 3.975, 8.6125, 4.1075, 8.745, 4.24, 8.8775, 4.3725, 22.525, 18.02, 22.6575, 18.1525, 22.79, 18.285, 22.9225, 18.4175, 23.055, 18.55, 23.1875, 18.6825, 23.32, 18.815, 23.4525, 18.9475, 23.585, 19.08, 23.7175, 19.2125, 23.85, 19.345, 23.9825, 19.4775, 24.115, 19.61, 24.2475, 19.7425, 24.38, 19.875, 24.5125, 20.0075, 24.645, 20.14, 24.7775, 20.2725, 24.91, 20.405, 25.0425, 20.5375, 25.175, 20.67, 25.3075, 20.8025, 25.44, 20.935, 25.5725, 21.0675, 25.705, 21.2, 25.8375, 21.3325, 25.97, 21.465, 26.1025, 21.5975, 26.235, 21.73, 26.3675, 21.8625, 26.5, 21.995, 26.6325, 22.1275, 26.765, 22.26, 26.8975, 22.3925],
      "InstanceCreationTime": ["102748.974000", "102748.864000", "102748.976000", "102748.867000", "102748.979000", "102748.870000", "102801.906000", "102748.882000", "102801.909000", "102748.884000", "102801.912000", "102748.886000", "102801.914000", "102748.888000", "102801.916000", "102748.891000", "102801.918000", "102748.893000", "102801.920000", "102748.895000", "102801.922000", "102748.898000", "102801.925000", "102748.900000", "102801.927000", "102748.902000", "102801.929000", "102748.905000", "102801.931000", "102748.911000", "102801.934000", "102748.914000", "102801.936000", "102748.916000", "102801.938000", "102748.934000", "102801.940000", "102748.937000", "102801.942000", "102748.939000", "102801.945000", "102748.941000", "102801.947000", "102748.944000", "102801.949000", "102748.946000", "102801.951000", "102748.949000", "102801.953000", "102748.951000", "102801.955000", "102748.953000", "102801.958000", "102748.955000", "102801.960000", "102748.957000", "102801.962000", "102748.960000", "102801.964000", "102748.962000", "102801.966000", "102748.964000", "102801.969000", "102748.967000", "102801.971000", "102748.969000", "102801.973000", "102748.971000", "102802.054000", "102801.975000", "102802.056000", "102801.977000", "102802.059000", "102801.979000", "102802.061000", "102801.982000", "102802.063000", "102801.984000", "102802.065000", "102801.986000", "102802.068000", "102801.988000", "102802.070000", "102801.990000", "102802.073000", "102801.993000", "102802.075000", "102801.995000", "102802.077000", "102801.997000", "102802.080000", "102802.000000", "102802.082000", "102802.006000", "102802.084000", "102802.008000", "102802.086000", "102802.010000", "102802.088000", "102802.012000", "102802.091000", "102802.015000", "102802.093000", "102802.017000", "102802.095000", "102802.019000", "102802.097000", "102802.021000", "102802.099000", "102802.023000", "102802.101000", "102802.026000", "102802.106000", "102802.028000", "102802.108000", "102802.030000", "102802.110000", "102802.032000", "102802.113000", "102802.034000", "102802.115000", "102802.037000", "102802.117000", "102802.039000", "102802.119000", "102802.041000", "102802.121000", "102802.043000", "102802.123000", "102802.045000", "102802.126000", "102802.048000", "102802.128000", "102802.050000", "102802.130000", "102802.052000"],
      "InstanceNumber": [1, 2, 3, 4, 5, 6, 7, 8, 9, 10, 11, 12, 13, 14, 15, 16, 17, 18, 19, 20, 21, 22, 23, 24, 25, 26, 27, 28, 29, 30, 31, 32, 33, 34, 35, 36, 37, 38, 39, 40, 41, 42, 43, 44, 45, 46, 47, 48, 49, 50, 51, 52, 53, 54, 55, 56, 57, 58, 59, 60, 61, 62, 63, 64, 65, 66, 67, 68, 69, 70, 71, 72, 73, 74, 75, 76, 77, 78, 79, 80, 81, 82, 83, 84, 85, 86, 87, 88, 89, 90, 91, 92, 93, 94, 95, 96, 97, 98, 99, 100, 101, 102, 103, 104, 105, 106, 107, 108, 109, 110, 111, 112, 113, 114, 115, 116, 117, 118, 119, 120, 121, 122, 123, 124, 125, 126, 127, 128, 129, 130, 131, 132, 133, 134, 135, 136],
      "LargestImagePixelValue": [3616, 3011, 2290, 2026, 1725, 2277, 2497, 2043, 2391, 1841, 2289, 1927, 2143, 2500, 2233, 2029, 2289, 1794, 1931, 1773, 1940, 2685, 2436, 4095, 4095, 2733, 2173, 2109, 2179, 1542, 1803, 1662, 1942, 1602, 1792, 1694, 1816, 1996, 2038, 1916, 1989, 1766, 1828, 1897, 1717, 1347, 1417, 1373, 1553, 1222, 1141, 1058, 1020, 1079, 968, 1142, 1011, 1273, 1174, 1378, 1596, 1576, 1012, 144, 142, 172, 44, 46, 3264, 3523, 2793, 2328, 1941, 2699, 2162, 2602, 2135, 2367, 2217, 1844, 2069, 1947, 2170, 2162, 2209, 2280, 1990, 2096, 1795, 1751, 2421, 4095, 4095, 3805, 2032, 3219, 2112, 1927, 1732, 2043, 1918, 2039, 1968, 2114, 2094, 2112, 2164, 2297, 2188, 2152, 2115, 2010, 1861, 1241, 1423, 1324, 1610, 1141, 1107, 1138, 1035, 1157, 1181, 1152, 1051, 1223, 1194, 1481, 1613, 1440, 944, 140, 169, 183, 44, 39],
      "WindowCenter": [474.0, 412.0, 301.0, 311.0, 270.0, 461.0, 418.0, 441.0, 456.0, 441.0, 466.0, 448.0, 450.0, 460.0, 464.0, 457.0, 454.0, 464.0, 474.0, 482.0, 492.0, 507.0, 506.0, 531.0, 532.0, 522.0, 531.0, 511.0, 520.0, 499.0, 506.0, 516.0, 521.0, 498.0, 505.0, 506.0, 511.0, 515.0, 521.0, 520.0, 519.0, 506.0, 507.0, 486.0, 490.0, 487.0, 495.0, 489.0, 489.0, 485.0, 476.0, 466.0, 464.0, 455.0, 449.0, 450.0, 447.0, 442.0, 435.0, 438.0, 468.0, 464.0, 185.0, 55.0, 55.0, 51.0, 44.0, 44.0, 372.0, 374.0, 342.0, 329.0, 304.0, 483.0, 407.0, 454.0, 446.0, 455.0, 463.0, 446.0, 444.0, 445.0, 454.0, 461.0, 453.0, 466.0, 484.0, 493.0, 497.0, 504.0, 517.0, 522.0, 545.0, 544.0, 537.0, 535.0, 529.0, 523.0, 515.0, 528.0, 533.0, 524.0, 518.0, 516.0, 523.0, 524.0, 532.0, 532.0, 532.0, 530.0, 516.0, 502.0, 495.0, 488.0, 496.0, 495.0, 494.0, 487.0, 484.0, 475.0, 472.0, 466.0, 462.0, 452.0, 449.0, 440.0, 438.0, 446.0, 471.0, 435.0, 147.0, 55.0, 56.0, 51.0, 44.0, 44.0],
      "WindowWidth": [1044.0, 913.0, 759.0, 762.0, 695.0, 981.0, 905.0, 956.0, 1006.0, 940.0, 1005.0, 958.0, 974.0, 988.0, 995.0, 984.0, 988.0, 1001.0, 1021.0, 1026.0, 1053.0, 1091.0, 1082.0, 1202.0, 1208.0, 1143.0, 1153.0, 1094.0, 1109.0, 1056.0, 1071.0, 1105.0, 1121.0, 1067.0, 1087.0, 1090.0, 1105.0, 1128.0, 1147.0, 1144.0, 1147.0, 1116.0, 1114.0, 1035.0, 1030.0, 1019.0, 1036.0, 1025.0, 1025.0, 1014.0, 993.0, 975.0, 970.0, 952.0, 937.0, 935.0, 927.0, 910.0, 897.0, 895.0, 942.0, 918.0, 451.0, 150.0, 151.0, 138.0, 115.0, 114.0, 865.0, 868.0, 830.0, 821.0, 751.0, 1042.0, 909.0, 1011.0, 982.0, 1001.0, 999.0, 963.0, 962.0, 961.0, 979.0, 992.0, 1000.0, 1023.0, 1046.0, 1059.0, 1067.0, 1068.0, 1108.0, 1172.0, 1235.0, 1193.0, 1168.0, 1160.0, 1126.0, 1118.0, 1090.0, 1139.0, 1150.0, 1136.0, 1121.0, 1123.0, 1142.0, 1159.0, 1184.0, 1194.0, 1189.0, 1197.0, 1146.0, 1086.0, 1042.0, 1020.0, 1038.0, 1037.0, 1036.0, 1020.0, 1011.0, 994.0, 987.0, 976.0, 963.0, 940.0, 932.0, 908.0, 902.0, 908.0, 947.0, 868.0, 385.0, 149.0, 152.0, 137.0, 114.0, 113.0]
    }
  },
  "time": {
    "samples": {
      "AcquisitionNumber": [1, 2]
    },
    "slices": {
      "CsaImage.ProtocolSliceNumber": [0, 1, 2, 3, 4, 5, 6, 7, 8, 9, 10, 11, 12, 13, 14, 15, 16, 17, 18, 19, 20, 21, 22, 23, 24, 25, 26, 27, 28, 29, 30, 31, 32, 33, 34, 35, 36, 37, 38, 39, 40, 41, 42, 43, 44, 45, 46, 47, 48, 49, 50, 51, 52, 53, 54, 55, 56, 57, 58, 59, 60, 61, 62, 63, 64, 65, 66, 67],
      "CsaImage.SlicePosition_PCS": [
        [-141.20481241, -81.01556777, -125.59913197],
        [-141.20481241, -82.03103255, -123.53543797],
        [-141.20481241, -83.04649734, -121.47174397],
        [-141.20481241, -84.0619583, -119.40804997],
        [-141.20481241, -85.07742309, -117.34435597],
        [-141.20481241, -86.09288787, -115.28066197],
        [-141.20481241, -87.10834884, -113.21696797],
        [-141.20481241, -88.12381362, -111.15327397],
        [-141.20481241, -89.1392784, -109.08957997],
        [-141.20481241, -90.15473937, -107.02588597],
        [-141.20481241, -91.17020415, -104.96219197],
        [-141.20481241, -92.18566894, -102.89849415],
        [-141.20481241, -93.2011299, -100.83480015],
        [-141.20481241, -94.21659469, -98.77110615],
        [-141.20481241, -95.23205756, -96.70741215],
        [-141.20481241, -96.24752044, -94.64371815],
        [-141.20481241, -97.26298522, -92.58002415],
        [-141.20481241, -98.27844809, -90.51633015],
        [-141.20481241, -99.29391097, -88.45263615],
        [-141.20481241, -100.30937575, -86.38894215],
        [-141.20481241, -101.32483863, -84.32524815],
        [-141.20481241, -102.3403015, -82.26155415],
        [-141.20481241, -103.35576629, -80.19786015],
        [-141.20481241, -104.37122916, -78.13416424],
        [-141.20481241, -105.38669204, -76.0704712],
        [-141.20481241, -106.40215491, -74.00677624],
        [-141.20481241, -107.4176197, -71.94308224],
        [-141.20481241, -108.43308257, -69.87938824],
        [-141.20481241, -109.44854545, -67.81569376],
        [-141.20481241, -110.46400928, -65.75199952],
        [-141.20481241, -111.4794731, -63.68830529],
        [-141.20481241, -112.49493693, -61.62461105],
        [-141.20481241, -113.51039981, -59.56091681],
        [-141.20481241, -114.52586364, -57.49722233],
        [-141.20481241, -115.54132651, -55.43352833],
        [-141.20481241, -116.55679034, -53.36983433],
        [-141.20481241, -117.57225417, -51.30613938],
        [-141.20481241, -118.58771752, -49.24244538],
        [-141.20481241, -119.60318088, -47.17875138],
        [-141.20481241, -120.61864423, -45.11505642],
        [-141.20481241, -121.63410782, -43.05136242],
        [-141.20481241, -122.64957117, -40.98766842],
        [-141.20481241, -123.66503464, -38.92397442],
        [-141.20481241, -124.68049811, -36.86028042],
        [-141.20481241, -125.69596156, -34.79658642],
        [-141.20481241, -126.71142506, -32.73289242],
        [-141.20481241, -127.72688841, -30.66919651],
        [-141.20481241, -128.742352, -28.60550251],
        [-141.20481241, -129.75781535, -26.54180851],
        [-141.20481241, -130.7732787, -24.47811451],
        [-141.20481241, -131.78874253, -22.41442051],
        [-141.20481241, -132.80420588, -20.35072651],
        [-141.20481241, -133.81966971, -18.28703251],
        [-141.20481241, -134.83513259, -16.22333851],
        [-141.20481241, -135.85059642, -14.15964451],
        [-141.20481241, -136.86605929, -12.09595051],
        [-141.20481241, -137.88152312, -10.03225651],
        [-141.20481241, -138.89698695, -7.9685587],
        [-141.20481241, -139.91244983, -5.9048647],
        [-141.20481241, -140.92791366, -3.8411707],
        [-141.20481241, -141.94337653, -1.7774767],
        [-141.20481241, -142.95884131, 0.2862173],
        [-141.20481241, -143.97430419, 2.3499113],
        [-141.20481241, -144.98976706, 4.41360149],
        [-141.20481241, -146.00522994, 6.47729931],
        [-141.20481241, -147.02069472, 8.54099712],
        [-141.20481241, -148.0361576, 10.60468731],
        [-141.20481241, -149.05162047, 12.66838512]
],
      "ImagePositionPatient": [
        [-141.20481240749, -81.015567769621, -125.59913196928],
        [-141.20481240749, -82.031032552336, -123.53543796904],
        [-141.20481240749, -83.046497335051, -121.4717439688],
        [-141.20481240749, -84.061958303069, -119.40804996855],
        [-141.20481240749, -85.077423085783, -117.34435596831],
        [-141.20481240749, -86.092887868498, -115.28066196806],
