{
  "AcquisitionMatrixPE": 122,
  "AcquisitionNumber": 1,
  "AcquisitionTime": "10:21:58.592500",
  "BandwidthPerPixelPhaseEncode": 22.769,
  "BodyPartExamined": "BRAIN",
  "CoilString": "HE1-4;NE1_2",
  "ConversionSoftware": "dcm2niix",
  "ConversionSoftwareVersion": "v1.0.20190410  GCC6.3.0",
  "DerivedVendorReportedEchoSpacing": 0.00071999,
  "DeviceSerialNumber": "145028",
  "DwellTime": 2.6e-06,
  "EchoTime": 0.106,
  "EchoTrainLength": 50,
  "EffectiveEchoSpacing": 0.000359995,
  "FlipAngle": 90,
  "ImageOrientationPatientDICOM": [0.999848, 0.000182757, -0.0174505, 1.81798e-08, 0.999945, 0.0104734],
  "ImageType": [
    "ORIGINAL",
    "PRIMARY",
    "DIFFUSION",
    "NONE",
    "ND",
    "NORM"
],
  "ImagingFrequency": 123.26,
  "InPlanePhaseEncodingDirectionDICOM": "COL",
  "InstitutionAddress": "Tremona_Road_StreetNo_Southampton_District_GB_SO16_6YD",
  "InstitutionName": "UHS_SMR1",
  "InstitutionalDepartmentName": "Department",
  "MRAcquisitionType": "2D",
  "MagneticFieldStrength": 3,
  "Manufacturer": "Siemens",
  "ManufacturersModelName": "Skyra",
  "Modality": "MR",
  "ParallelReductionFactorInPlane": 2,
  "PatientPosition": "HFS",
  "PercentPhaseFOV": 100,
  "PhaseEncodingDirection": "j-",
  "PhaseEncodingSteps": 99,
  "PixelBandwidth": 1575,
  "ProcedureStepDescription": "MRI_Head",
  "ProtocolName": "ep2d_diff_b2600_iso2p3_phase_AP_43dir",
  "ReconMatrixPE": 122,
  "RepetitionTime": 9.3,
  "SAR": 0.28724,
  "ScanOptions": "PFP_FS",
  "ScanningSequence": "EP",
  "SequenceName": "_ep_b0",
  "SequenceVariant": "SK_SP",
  "SeriesDescription": "ep2d_diff_b2600_iso2p3_phase_AP_43dir",
  "SeriesNumber": 26,
  "SliceThickness": 2.3,
  "SliceTiming": [0.00464, -0.001, -0.001, -0.001, -0.001, -0.001, -0.001, -0.001, -0.001, -0.001, -0.001, -0.001, -0.001, -0.001, -0.001, -0.001, -0.001, -0.001, -0.001, -0.001, -0.001, -0.001, -0.001, -0.001, -0.001, -0.001, -0.001, -0.001, -0.001, -0.001, -0.001, -0.001, -0.001, -0.001, -0.001, -0.001, -0.001, -0.001, -0.001, -0.001, -0.001, -0.001, -0.001, -0.001, -0.001, -0.001, -0.001, -0.001, -0.001, -0.001, -0.001, -0.001, -0.001, -0.001, -0.001, -0.001, -0.001, -0.001, -0.001, -0.001, -0.001, -0.001, -0.001, -0.001],
  "SoftwareVersions": "syngo_MR_E11",
  "SpacingBetweenSlices": 2.3,
  "StationName": "AWP145028",
  "TotalReadoutTime": 0.0435594,
  "dcmmeta_affine": [
    [-2.2947323322296143, 4.172409262537258e-08, -0.0401383638381958, 141.2445831298828],
    [-0.0004194432985968888, 2.2949559688568115, 0.024084091186523438, -156.24771118164062],
    [-0.040050309151411057, -0.024037260562181473, 2.2995223999023438, -68.72211456298828],
    [0.0, 0.0, 0.0, 1.0]
],
  "dcmmeta_reorient_transform": [
    [0.0, -1.0, 0.0, 121.0],
    [1.0, 0.0, 0.0, 0.0],
    [0.0, 0.0, -1.0, 63.0],
    [0.0, 0.0, 0.0, 1.0]
],
  "dcmmeta_shape": [122, 122, 64, 44],
  "dcmmeta_slice_dim": 2,
  "dcmmeta_version": 0.6,
  "global": {
    "const": {
      "AcquisitionMatrix": [122, 0, 0, 122],
      "AngioFlag": "N",
      "BitsAllocated": 16,
      "BitsStored": 12,
      "BodyPartExamined": "BRAIN",
      "Columns": 122,
      "EchoNumbers": 1,
      "EchoTime": 106.0,
      "EchoTrainLength": 50,
      "FlipAngle": 90.0,
      "HighBit": 11,
      "ImageOrientationPatient": [0.99984771187019, 0.00018275744948, -0.0174504919031, 1.8179784e-08, 0.99994515266967, 0.01047337827211],
      "ImageType": [
        "ORIGINAL",
        "PRIMARY",
        "DIFFUSION",
        "NONE",
        "ND",
        "NORM"
],
      "ImagedNucleus": "1H",
      "ImagingFrequency": 123.260135,
      "InPlanePhaseEncodingDirection": "COL",
      "MRAcquisitionType": "2D",
      "MagneticFieldStrength": 3.0,
      "Manufacturer": "SIEMENS",
      "ManufacturerModelName": "Skyra",
      "Modality": "MR",
      "NumberOfAverages": 1.0,
      "NumberOfPhaseEncodingSteps": 99,
      "PercentPhaseFieldOfView": 100.0,
      "PercentSampling": 100.0,
      "PerformedProcedureStepStartTime": "091158.804000",
      "PhotometricInterpretation": "MONOCHROME2",
      "PixelBandwidth": 1575.0,
      "PixelRepresentation": 0,
      "PixelSpacing": [2.2950818538666, 2.2950818538666],
      "ProcedureCodeSequence": [
        {
          "CodeMeaning": "MRI Head",
          "CodeValue": "MSKUH",
          "CodingSchemeDesignator": "NICIP"
        }
],
      "ProtocolName": "ep2d_diff_b2600_iso2p3_phase_AP_43dir",
      "RepetitionTime": 9300.0,
      "RequestAttributesSequence": [
        {
          "RequestedProcedureID": "MSKUH",
          "ScheduledProcedureStepDescription": "MRI Head",
          "ScheduledProcedureStepID": "70387600",
          "ScheduledProtocolCodeSequence": [
            {
              "CodeMeaning": "MRI Head",
              "CodeValue": "MSKUH",
              "CodingSchemeDesignator": "NICIP"
            }
]
        }
],
      "RequestedProcedureCodeSequence": [
        {
          "CodeMeaning": "MRI Head",
          "CodeValue": "MSKUH",
          "CodingSchemeDesignator": "NICIP"
        }
],
      "Rows": 122,
      "SAR": 0.28723960915458,
      "SamplesPerPixel": 1,
      "ScanOptions": [
        "PFP",
        "FS"
],
      "ScanningSequence": "EP",
      "SequenceVariant": [
        "SK",
        "SP"
],
      "SeriesDescription": "ep2d_diff_b2600_iso2p3_phase_AP_43dir",
      "SeriesNumber": 26,
      "SeriesTime": "102208.460000",
      "SliceThickness": 2.2999999523163,
      "SmallestImagePixelValue": 0,
      "SoftwareVersions": "syngo MR E11",
      "SpacingBetweenSlices": 2.3,
      "SpecificCharacterSet": "ISO_IR 100",
      "StudyID": "MSKUH",
      "StudyTime": "091158.564000",
      "TransmitCoilName": "Body",
      "VariableFlipAngleFlag": "N",
      "WindowCenterWidthExplanation": "Algo1",
      "dBdt": 0.0},
    "slices": {
      "AcquisitionTime": ["102158.592500", "102153.952500", "102158.737500", "102154.097500", "102158.882500", "102154.242500", "102159.027500", "102154.387500", "102159.172500", "102154.532500", "102159.317500", "102154.677500", "102159.462500", "102154.822500", "102159.607500", "102154.967500", "102159.752500", "102155.112500", "102159.897500", "102155.257500", "102200.042500", "102155.402500", "102200.187500", "102155.547500", "102200.332500", "102155.692500", "102200.477500", "102155.837500", "102200.622500", "102155.982500", "102200.767500", "102156.127500", "102200.912500", "102156.272500", "102201.057500", "102156.417500", "102201.202500", "102156.562500", "102201.347500", "102156.707500", "102201.492500", "102156.852500", "102201.637500", "102156.997500", "102201.782500", "102157.142500", "102201.927500", "102157.287500", "102202.072500", "102157.432500", "102202.217500", "102157.577500", "102202.362500", "102157.722500", "102202.507500", "102157.867500", "102202.652500", "102158.012500", "102202.797500", "102158.157500", "102202.942500", "102158.302500", "102203.087500", "102158.447500", "102207.892500", "102203.252500", "102208.037500", "102203.397500", "102208.182500", "102203.542500", "102208.327500", "102203.687500", "102208.472500", "102203.832500", "102208.617500", "102203.977500", "102208.762500", "102204.122500", "102208.907500", "102204.267500", "102209.052500", "102204.412500", "102209.197500", "102204.557500", "102209.342500", "102204.702500", "102209.487500", "102204.847500", "102209.632500", "102204.992500", "102209.777500", "102205.137500", "102209.922500", "102205.282500", "102210.067500", "102205.427500", "102210.212500", "102205.572500", "102210.357500", "102205.717500", "102210.502500", "102205.862500", "102210.647500", "102206.007500", "102210.792500", "102206.152500", "102210.937500", "102206.297500", "102211.082500", "102206.442500", "102211.227500", "102206.587500", "102211.372500", "102206.732500", "102211.517500", "102206.877500", "102211.662500", "102207.022500", "102211.807500", "102207.167500", "102211.952500", "102207.312500", "102212.097500", "102207.457500", "102212.242500", "102207.602500", "102212.387500", "102207.747500", "102217.192500", "102212.552500", "102217.337500", "102212.697500", "102217.482500", "102212.842500", "102217.627500", "102212.987500", "102217.772500", "102213.132500", "102217.917500", "102213.277500", "102218.062500", "102213.422500", "102218.207500", "102213.567500", "102218.352500", "102213.712500", "102218.497500", "102213.857500", "102218.642500", "102214.002500", "102218.787500", "102214.147500", "102218.932500", "102214.292500", "102219.077500", "102214.437500", "102219.222500", "102214.582500", "102219.367500", "102214.727500", "102219.512500", "102214.872500", "102219.657500", "102215.017500", "102219.802500", "102215.162500", "102219.947500", "102215.307500", "102220.092500", "102215.452500", "102220.237500", "102215.597500", "102220.382500", "102215.742500", "102220.527500", "102215.887500", "102220.672500", "102216.032500", "102220.817500", "102216.177500", "102220.962500", "102216.322500", "102221.107500", "102216.467500", "102221.252500", "102216.612500", "102221.397500", "102216.757500", "102221.542500", "102216.902500", "102221.687500", "102217.047500", "102226.492500", "102221.852500", "102226.637500", "102221.997500", "102226.782500", "102222.142500", "102226.927500", "102222.287500", "102227.072500", "102222.432500", "102227.217500", "102222.577500", "102227.362500", "102222.722500", "102227.507500", "102222.867500", "102227.652500", "102223.012500", "102227.797500", "102223.157500", "102227.942500", "102223.302500", "102228.087500", "102223.447500", "102228.232500", "102223.592500", "102228.377500", "102223.737500", "102228.522500", "102223.882500", "102228.667500", "102224.027500", "102228.812500", "102224.172500", "102228.957500", "102224.317500", "102229.102500", "102224.462500", "102229.247500", "102224.607500", "102229.392500", "102224.752500", "102229.537500", "102224.897500", "102229.682500", "102225.042500", "102229.827500", "102225.187500", "102229.972500", "102225.332500", "102230.117500", "102225.477500", "102230.262500", "102225.622500", "102230.407500", "102225.767500", "102230.552500", "102225.912500", "102230.697500", "102226.057500", "102230.842500", "102226.202500", "102230.987500", "102226.347500", "102235.792500", "102231.152500", "102235.937500", "102231.297500", "102236.082500", "102231.442500", "102236.227500", "102231.587500", "102236.372500", "102231.732500", "102236.517500", "102231.877500", "102236.662500", "102232.022500", "102236.807500", "102232.167500", "102236.952500", "102232.312500", "102237.097500", "102232.457500", "102237.242500", "102232.602500", "102237.387500", "102232.747500", "102237.532500", "102232.892500", "102237.677500", "102233.037500", "102237.822500", "102233.182500", "102237.967500", "102233.327500", "102238.112500", "102233.472500", "102238.257500", "102233.617500", "102238.402500", "102233.762500", "102238.547500", "102233.907500", "102238.692500", "102234.052500", "102238.837500", "102234.197500", "102238.982500", "102234.342500", "102239.127500", "102234.487500", "102239.272500", "102234.632500", "102239.417500", "102234.777500", "102239.562500", "102234.922500", "102239.707500", "102235.067500", "102239.852500", "102235.212500", "102239.997500", "102235.357500", "102240.142500", "102235.502500", "102240.287500", "102235.647500", "102245.092500", "102240.452500", "102245.237500", "102240.597500", "102245.382500", "102240.742500", "102245.527500", "102240.887500", "102245.672500", "102241.032500", "102245.817500", "102241.177500", "102245.962500", "102241.322500", "102246.107500", "102241.467500", "102246.252500", "102241.612500", "102246.397500", "102241.757500", "102246.542500", "102241.902500", "102246.687500", "102242.047500", "102246.832500", "102242.192500", "102246.977500", "102242.337500", "102247.122500", "102242.482500", "102247.267500", "102242.627500", "102247.412500", "102242.772500", "102247.557500", "102242.917500", "102247.702500", "102243.062500", "102247.847500", "102243.207500", "102247.992500", "102243.352500", "102248.137500", "102243.497500", "102248.282500", "102243.642500", "102248.427500", "102243.787500", "102248.572500", "102243.932500", "102248.717500", "102244.077500", "102248.862500", "102244.222500", "102249.007500", "102244.367500", "102249.152500", "102244.512500", "102249.297500", "102244.657500", "102249.442500", "102244.802500", "102249.587500", "102244.947500", "102254.392500", "102249.752500", "102254.537500", "102249.897500", "102254.682500", "102250.042500", "102254.827500", "102250.187500", "102254.972500", "102250.332500", "102255.117500", "102250.477500", "102255.262500", "102250.622500", "102255.407500", "102250.767500", "102255.552500", "102250.912500", "102255.697500", "102251.057500", "102255.842500", "102251.202500", "102255.987500", "102251.347500", "102256.132500", "102251.492500", "102256.277500", "102251.637500", "102256.422500", "102251.782500", "102256.567500", "102251.927500", "102256.712500", "102252.072500", "102256.857500", "102252.217500", "102257.002500", "102252.362500", "102257.147500", "102252.507500", "102257.292500", "102252.652500", "102257.437500", "102252.797500", "102257.582500", "102252.942500", "102257.727500", "102253.087500", "102257.872500", "102253.232500", "102258.017500", "102253.377500", "102258.162500", "102253.522500", "102258.307500", "102253.667500", "102258.452500", "102253.812500", "102258.597500", "102253.957500", "102258.742500", "102254.102500", "102258.887500", "102254.247500", "102303.692500", "102259.052500", "102303.837500", "102259.197500", "102303.982500", "102259.342500", "102304.127500", "102259.487500", "102304.272500", "102259.632500", "102304.417500", "102259.777500", "102304.562500", "102259.922500", "102304.707500", "102300.067500", "102304.852500", "102300.212500", "102304.997500", "102300.357500", "102305.142500", "102300.502500", "102305.287500", "102300.647500", "102305.432500", "102300.792500", "102305.577500", "102300.937500", "102305.722500", "102301.082500", "102305.867500", "102301.227500", "102306.012500", "102301.372500", "102306.157500", "102301.517500", "102306.302500", "102301.662500", "102306.447500", "102301.807500", "102306.592500", "102301.952500", "102306.737500", "102302.097500", "102306.882500", "102302.242500", "102307.027500", "102302.387500", "102307.172500", "102302.532500", "102307.317500", "102302.677500", "102307.462500", "102302.822500", "102307.607500", "102302.967500", "102307.752500", "102303.112500", "102307.897500", "102303.257500", "102308.042500", "102303.402500", "102308.187500", "102303.547500", "102312.992500", "102308.352500", "102313.137500", "102308.497500", "102313.282500", "102308.642500", "102313.427500", "102308.787500", "102313.572500", "102308.932500", "102313.717500", "102309.077500", "102313.862500", "102309.222500", "102314.007500", "102309.367500", "102314.152500", "102309.512500", "102314.297500", "102309.657500", "102314.442500", "102309.802500", "102314.587500", "102309.947500", "102314.732500", "102310.092500", "102314.877500", "102310.237500", "102315.022500", "102310.382500", "102315.167500", "102310.527500", "102315.312500", "102310.672500", "102315.457500", "102310.817500", "102315.602500", "102310.962500", "102315.747500", "102311.107500", "102315.892500", "102311.252500", "102316.037500", "102311.397500", "102316.182500", "102311.542500", "102316.327500", "102311.687500", "102316.472500", "102311.832500", "102316.617500", "102311.977500", "102316.762500", "102312.122500", "102316.907500", "102312.267500", "102317.052500", "102312.412500", "102317.197500", "102312.557500", "102317.342500", "102312.702500", "102317.487500", "102312.847500", "102322.292500", "102317.652500", "102322.437500", "102317.797500", "102322.582500", "102317.942500", "102322.727500", "102318.087500", "102322.872500", "102318.232500", "102323.017500", "102318.377500", "102323.162500", "102318.522500", "102323.307500", "102318.667500", "102323.452500", "102318.812500", "102323.597500", "102318.957500", "102323.742500", "102319.102500", "102323.887500", "102319.247500", "102324.032500", "102319.392500", "102324.177500", "102319.537500", "102324.322500", "102319.682500", "102324.467500", "102319.827500", "102324.612500", "102319.972500", "102324.757500", "102320.117500", "102324.902500", "102320.262500", "102325.047500", "102320.407500", "102325.192500", "102320.552500", "102325.337500", "102320.697500", "102325.482500", "102320.842500", "102325.627500", "102320.987500", "102325.772500", "102321.132500", "102325.917500", "102321.277500", "102326.062500", "102321.422500", "102326.207500", "102321.567500", "102326.352500", "102321.712500", "102326.497500", "102321.857500", "102326.642500", "102322.002500", "102326.787500", "102322.147500", "102331.592500", "102326.952500", "102331.737500", "102327.097500", "102331.882500", "102327.242500", "102332.027500", "102327.387500", "102332.172500", "102327.532500", "102332.317500", "102327.677500", "102332.462500", "102327.822500", "102332.607500", "102327.967500", "102332.752500", "102328.112500", "102332.897500", "102328.257500", "102333.042500", "102328.402500", "102333.187500", "102328.547500", "102333.332500", "102328.692500", "102333.477500", "102328.837500", "102333.622500", "102328.982500", "102333.767500", "102329.127500", "102333.912500", "102329.272500", "102334.057500", "102329.417500", "102334.202500", "102329.562500", "102334.347500", "102329.707500", "102334.492500", "102329.852500", "102334.637500", "102329.997500", "102334.782500", "102330.142500", "102334.927500", "102330.287500", "102335.072500", "102330.432500", "102335.217500", "102330.577500", "102335.362500", "102330.722500", "102335.507500", "102330.867500", "102335.652500", "102331.012500", "102335.797500", "102331.157500", "102335.942500", "102331.302500", "102336.087500", "102331.447500", "102340.892500", "102336.252500", "102341.037500", "102336.397500", "102341.182500", "102336.542500", "102341.327500", "102336.687500", "102341.472500", "102336.832500", "102341.617500", "102336.977500", "102341.762500", "102337.122500", "102341.907500", "102337.267500", "102342.052500", "102337.412500", "102342.197500", "102337.557500", "102342.342500", "102337.702500", "102342.487500", "102337.847500", "102342.632500", "102337.992500", "102342.777500", "102338.137500", "102342.922500", "102338.282500", "102343.067500", "102338.427500", "102343.212500", "102338.572500", "102343.357500", "102338.717500", "102343.502500", "102338.862500", "102343.647500", "102339.007500", "102343.792500", "102339.152500", "102343.937500", "102339.297500", "102344.082500", "102339.442500", "102344.227500", "102339.587500", "102344.372500", "102339.732500", "102344.517500", "102339.877500", "102344.662500", "102340.022500", "102344.807500", "102340.167500", "102344.952500", "102340.312500", "102345.097500", "102340.457500", "102345.242500", "102340.602500", "102345.387500", "102340.747500", "102350.192500", "102345.552500", "102350.337500", "102345.697500", "102350.482500", "102345.842500", "102350.627500", "102345.987500", "102350.772500", "102346.132500", "102350.917500", "102346.277500", "102351.062500", "102346.422500", "102351.207500", "102346.567500", "102351.352500", "102346.712500", "102351.497500", "102346.857500", "102351.642500", "102347.002500", "102351.787500", "102347.147500", "102351.932500", "102347.292500", "102352.077500", "102347.437500", "102352.222500", "102347.582500", "102352.367500", "102347.727500", "102352.512500", "102347.872500", "102352.657500", "102348.017500", "102352.802500", "102348.162500", "102352.947500", "102348.307500", "102353.092500", "102348.452500", "102353.237500", "102348.597500", "102353.382500", "102348.742500", "102353.527500", "102348.887500", "102353.672500", "102349.032500", "102353.817500", "102349.177500", "102353.962500", "102349.322500", "102354.107500", "102349.467500", "102354.252500", "102349.612500", "102354.397500", "102349.757500", "102354.542500", "102349.902500", "102354.687500", "102350.047500", "102359.492500", "102354.852500", "102359.637500", "102354.997500", "102359.782500", "102355.142500", "102359.927500", "102355.287500", "102400.072500", "102355.432500", "102400.217500", "102355.577500", "102400.362500", "102355.722500", "102400.507500", "102355.867500", "102400.652500", "102356.012500", "102400.797500", "102356.157500", "102400.942500", "102356.302500", "102401.087500", "102356.447500", "102401.232500", "102356.592500", "102401.377500", "102356.737500", "102401.522500", "102356.882500", "102401.667500", "102357.027500", "102401.812500", "102357.172500", "102401.957500", "102357.317500", "102402.102500", "102357.462500", "102402.247500", "102357.607500", "102402.392500", "102357.752500", "102402.537500", "102357.897500", "102402.682500", "102358.042500", "102402.827500", "102358.187500", "102402.972500", "102358.332500", "102403.117500", "102358.477500", "102403.262500", "102358.622500", "102403.407500", "102358.767500", "102403.552500", "102358.912500", "102403.697500", "102359.057500", "102403.842500", "102359.202500", "102403.987500", "102359.347500", "102408.792500", "102404.152500", "102408.937500", "102404.297500", "102409.082500", "102404.442500", "102409.227500", "102404.587500", "102409.372500", "102404.732500", "102409.517500", "102404.877500", "102409.662500", "102405.022500", "102409.807500", "102405.167500", "102409.952500", "102405.312500", "102410.097500", "102405.457500", "102410.242500", "102405.602500", "102410.387500", "102405.747500", "102410.532500", "102405.892500", "102410.677500", "102406.037500", "102410.822500", "102406.182500", "102410.967500", "102406.327500", "102411.112500", "102406.472500", "102411.257500", "102406.617500", "102411.402500", "102406.762500", "102411.547500", "102406.907500", "102411.692500", "102407.052500", "102411.837500", "102407.197500", "102411.982500", "102407.342500", "102412.127500", "102407.487500", "102412.272500", "102407.632500", "102412.417500", "102407.777500", "102412.562500", "102407.922500", "102412.707500", "102408.067500", "102412.852500", "102408.212500", "102412.997500", "102408.357500", "102413.142500", "102408.502500", "102413.287500", "102408.647500", "102418.092500", "102413.452500", "102418.237500", "102413.597500", "102418.382500", "102413.742500", "102418.527500", "102413.887500", "102418.672500", "102414.032500", "102418.817500", "102414.177500", "102418.962500", "102414.322500", "102419.107500", "102414.467500", "102419.252500", "102414.612500", "102419.397500", "102414.757500", "102419.542500", "102414.902500", "102419.687500", "102415.047500", "102419.832500", "102415.192500", "102419.977500", "102415.337500", "102420.122500", "102415.482500", "102420.267500", "102415.627500", "102420.412500", "102415.772500", "102420.557500", "102415.917500", "102420.702500", "102416.062500", "102420.847500", "102416.207500", "102420.992500", "102416.352500", "102421.137500", "102416.497500", "102421.282500", "102416.642500", "102421.427500", "102416.787500", "102421.572500", "102416.932500", "102421.717500", "102417.077500", "102421.862500", "102417.222500", "102422.007500", "102417.367500", "102422.152500", "102417.512500", "102422.297500", "102417.657500", "102422.442500", "102417.802500", "102422.587500", "102417.947500", "102427.392500", "102422.752500", "102427.537500", "102422.897500", "102427.682500", "102423.042500", "102427.827500", "102423.187500", "102427.972500", "102423.332500", "102428.117500", "102423.477500", "102428.262500", "102423.622500", "102428.407500", "102423.767500", "102428.552500", "102423.912500", "102428.697500", "102424.057500", "102428.842500", "102424.202500", "102428.987500", "102424.347500", "102429.132500", "102424.492500", "102429.277500", "102424.637500", "102429.422500", "102424.782500", "102429.567500", "102424.927500", "102429.712500", "102425.072500", "102429.857500", "102425.217500", "102430.002500", "102425.362500", "102430.147500", "102425.507500", "102430.292500", "102425.652500", "102430.437500", "102425.797500", "102430.582500", "102425.942500", "102430.727500", "102426.087500", "102430.872500", "102426.232500", "102431.017500", "102426.377500", "102431.162500", "102426.522500", "102431.307500", "102426.667500", "102431.452500", "102426.812500", "102431.597500", "102426.957500", "102431.742500", "102427.102500", "102431.887500", "102427.247500", "102436.692500", "102432.052500", "102436.837500", "102432.197500", "102436.982500", "102432.342500", "102437.127500", "102432.487500", "102437.272500", "102432.632500", "102437.417500", "102432.777500", "102437.562500", "102432.922500", "102437.707500", "102433.067500", "102437.852500", "102433.212500", "102437.997500", "102433.357500", "102438.142500", "102433.502500", "102438.287500", "102433.647500", "102438.432500", "102433.792500", "102438.577500", "102433.937500", "102438.722500", "102434.082500", "102438.867500", "102434.227500", "102439.012500", "102434.372500", "102439.157500", "102434.517500", "102439.302500", "102434.662500", "102439.447500", "102434.807500", "102439.592500", "102434.952500", "102439.737500", "102435.097500", "102439.882500", "102435.242500", "102440.027500", "102435.387500", "102440.172500", "102435.532500", "102440.317500", "102435.677500", "102440.462500", "102435.822500", "102440.607500", "102435.967500", "102440.752500", "102436.112500", "102440.897500", "102436.257500", "102441.042500", "102436.402500", "102441.187500", "102436.547500", "102445.992500", "102441.352500", "102446.137500", "102441.497500", "102446.282500", "102441.642500", "102446.427500", "102441.787500", "102446.572500", "102441.932500", "102446.717500", "102442.077500", "102446.862500", "102442.222500", "102447.007500", "102442.367500", "102447.152500", "102442.512500", "102447.297500", "102442.657500", "102447.442500", "102442.802500", "102447.587500", "102442.947500", "102447.732500", "102443.092500", "102447.877500", "102443.237500", "102448.022500", "102443.382500", "102448.167500", "102443.527500", "102448.312500", "102443.672500", "102448.457500", "102443.817500", "102448.602500", "102443.962500", "102448.747500", "102444.107500", "102448.892500", "102444.252500", "102449.037500", "102444.397500", "102449.182500", "102444.542500", "102449.327500", "102444.687500", "102449.472500", "102444.832500", "102449.617500", "102444.977500", "102449.762500", "102445.122500", "102449.907500", "102445.267500", "102450.052500", "102445.412500", "102450.197500", "102445.557500", "102450.342500", "102445.702500", "102450.487500", "102445.847500", "102455.292500", "102450.652500", "102455.437500", "102450.797500", "102455.582500", "102450.942500", "102455.727500", "102451.087500", "102455.872500", "102451.232500", "102456.017500", "102451.377500", "102456.162500", "102451.522500", "102456.307500", "102451.667500", "102456.452500", "102451.812500", "102456.597500", "102451.957500", "102456.742500", "102452.102500", "102456.887500", "102452.247500", "102457.032500", "102452.392500", "102457.177500", "102452.537500", "102457.322500", "102452.682500", "102457.467500", "102452.827500", "102457.612500", "102452.972500", "102457.757500", "102453.117500", "102457.902500", "102453.262500", "102458.047500", "102453.407500", "102458.192500", "102453.552500", "102458.337500", "102453.697500", "102458.482500", "102453.842500", "102458.627500", "102453.987500", "102458.772500", "102454.132500", "102458.917500", "102454.277500", "102459.062500", "102454.422500", "102459.207500", "102454.567500", "102459.352500", "102454.712500", "102459.497500", "102454.857500", "102459.642500", "102455.002500", "102459.787500", "102455.147500", "102504.592500", "102459.952500", "102504.737500", "102500.097500", "102504.882500", "102500.242500", "102505.027500", "102500.387500", "102505.172500", "102500.532500", "102505.317500", "102500.677500", "102505.462500", "102500.822500", "102505.607500", "102500.967500", "102505.752500", "102501.112500", "102505.897500", "102501.257500", "102506.042500", "102501.402500", "102506.187500", "102501.547500", "102506.332500", "102501.692500", "102506.477500", "102501.837500", "102506.622500", "102501.982500", "102506.767500", "102502.127500", "102506.912500", "102502.272500", "102507.057500", "102502.417500", "102507.202500", "102502.562500", "102507.347500", "102502.707500", "102507.492500", "102502.852500", "102507.637500", "102502.997500", "102507.782500", "102503.142500", "102507.927500", "102503.287500", "102508.072500", "102503.432500", "102508.217500", "102503.577500", "102508.362500", "102503.722500", "102508.507500", "102503.867500", "102508.652500", "102504.012500", "102508.797500", "102504.157500", "102508.942500", "102504.302500", "102509.087500", "102504.447500", "102513.892500", "102509.252500", "102514.037500", "102509.397500", "102514.182500", "102509.542500", "102514.327500", "102509.687500", "102514.472500", "102509.832500", "102514.617500", "102509.977500", "102514.762500", "102510.122500", "102514.907500", "102510.267500", "102515.052500", "102510.412500", "102515.197500", "102510.557500", "102515.342500", "102510.702500", "102515.487500", "102510.847500", "102515.632500", "102510.992500", "102515.777500", "102511.137500", "102515.922500", "102511.282500", "102516.067500", "102511.427500", "102516.212500", "102511.572500", "102516.357500", "102511.717500", "102516.502500", "102511.862500", "102516.647500", "102512.007500", "102516.792500", "102512.152500", "102516.937500", "102512.297500", "102517.082500", "102512.442500", "102517.227500", "102512.587500", "102517.372500", "102512.732500", "102517.517500", "102512.877500", "102517.662500", "102513.022500", "102517.807500", "102513.167500", "102517.952500", "102513.312500", "102518.097500", "102513.457500", "102518.242500", "102513.602500", "102518.387500", "102513.747500", "102523.192500", "102518.552500", "102523.337500", "102518.697500", "102523.482500", "102518.842500", "102523.627500", "102518.987500", "102523.772500", "102519.132500", "102523.917500", "102519.277500", "102524.062500", "102519.422500", "102524.207500", "102519.567500", 